;RAW4.00
[RawHeader]
Date=05/18/2016
EstimatedTotalTime=1361
FurtherDQLReading=0
HardwareIndicator=65519
MeasuredTotalTime=13.6502
MeasurementFlag=1
NumberOfMeasuredRanges=1
NumberOfRanges=1
Time=15:01:58

[VarInfo]
Type=USER
Flags=0
Value=

[VarInfo]
Type=SAMPLEID
Flags=0
Value=Commander Sample ID

[VarInfo]
Type=COMMENT
Flags=0
Value=

[VarInfo]
Type=UTF
Flags=0
Value=

[VarInfo]
Type=CREATOR
Flags=0
Value=V5Converter

[VarInfo]
Type=CREATOR_VERSION
Flags=0
Value=2.2.47.1

[HardwareConfiguration]
AbsorptionFactor=9999
ActivateAbsorber=0
Alpha1=1.5406
Alpha2=1.54439
AlphaAverage=1.54184
AlphaRatio=0.5
Analyzer=0
Anode=Cu
AntiScatteringSlit=9999
BeamOpticsFlags=0
Beta=1.39222
BetaRelativeIntensity=0
DeactivateAbsorber=0
DetectorSlit=9999
DivergenceSlit=9999
GoniometerControl=0
GoniometerDiameter=282
GoniometerModel=256
GoniometerStage=7
Monochromator=0
NearSampleSlit=9999
PrimarySollerSlit=9999
SampleChanger=0
SecondSollerSlit=9999
SynchronousAxis=0
ThinFilmAttachment=9999
WaveUnit=A

[RangeHeader]
ActuallyUsedLambda=1.54184
AdditionalDetectorMask=257
DataRecordLength=4
DelayTime=0
DisplayPlaneNumber=0
EstimatedScanTime=1361
ExtraParametersMask=0
GeneratorCurrent=10
GeneratorVoltage=30
Increment=0.0588111
Increment3=0
NumberOfCompletedData=1277
NumberOfCounts=1
NumberOfDetectors=0
NumberOfDrives=2
NumberOfEncoderDrives=0
NumberOfMeasuredData=1277
NumberOfVaryingParameters=0
RangeStartTime=0
RotationSpeed=10
ScanMode=1
ScanType=Locked Coupled
SimulatedMeasConditions=0
SlitChangerIn=0
SmootingWidth=0
Start=5.00142
Steps=1277
SynchronousRotation=0
Time=164

[VarInfo]
Type=PSD_DISCRIM
Flags=0
Value=0.11;0.25

[VarInfo]
Type=OPTICS_V5
Flags=0
Value=H4sIAAAAAAAEAO29B2AcSZYlJi9tynt/SvVK1+B0oQiAYBMk2JBAEOzBiM3mkuwdaUcjKasqgcplVmVdZhZAzO2dvPfee++999577733ujudTif33/8/XGZkAWz2zkrayZ4hgKrIHz9+fB8/Ih7/Hu8WZXqZ101RLT/7aHe881GaL6fVrFhefPbRuj3f3v30o9/j6PHn1bKoFnmb1yfVYlUt82X7NGuzlN5eNo/eNcVnH83bdvXo7t2rq6vx1b1xVV/c3dvZ2b37e3/x/PV0ni+y7WLZtNlymn9k35rd/NZH6U8WTTEp8xfZIv/sI4eH/eJp3kzrYtXyAH6fVVOU1TL1231eV+vVGfVFY3uS1zSyLyc/nU/bl1k7/+yju0/zy2Ka3/Xf8Fv1+5VvT8qsaRSEpYkH5a6iYtofT9t1Vpo+97b3dj69d/Dw7hkRpV4v8G4MkWz59mXVFDK4nY+OHr8mEs4ygpu/JrBZWfwgw5dH51nZ5I/vDn39+PdelM+KvJy9yqm/YooPT6rlMuffmvTu0WNBELP6Oi/p86PTJeGQzx7f7X2jbamzdt0cffnWNNEPHn8BJNqqvja4H+08vtv/EEidzWjoL9aLSV4f7d1/fLfz0eMviBXPiymP4lmZXRy9rItFVl+/qbPp2yZ9nU8rAmv/Pm6aalpwa+qx++7jb2eNfJjPAjhHNAdEvcGv/Rc7XfZf7TbwX/bwi7wZfPv4y7ogQsj8/WRetzSS8vFd/1NPLN9cr/IjZbnHHg/x5487o+GfLL9fFEvHX7sPPkq/yN65D/ZuKTF3ffgx8Yl9HxcgbmLgfYDshCgdPT5rCEhxmSvR7Z/2i7NlS/Ji5Kjz6eMnebawfKugH98NPn3sC2sT/tkT5JSm8aJYZmX4Bc0A+nLk80Qs8vFj86b+/VUDce18SCK0JkmeWRqnpK4ftcQXn330Zj3J+WswQ0fV4rsFvotrWvt1el7VJIdZmc9SfPj+CjeYq7tev31G6n0Z56IvCcmpg3RX0Pum2ClAsTt/PhFP37X5cpYTJf6/q7l3H0RVt4dNkzJ+MkFGcD5KvRadr44eezQ6Mh8/vut/app4PIehekA9NvY+/XL5pKrKPCO7+9WyaJnyRK7z4mJNFHlVXMzbo1d5NvtuXbTUZferxyRCtfz6bF2Wx9Np3jSP77pPHz+9XmaLYtpvE3zx+GlBjASn6nmxKFqeJvtRA3Po/fX4aX6ercv2J7NynXvD0pHQbBYt6UL++rOPoMA+Ary73rChx07m+fRtPnMqzHzw+GTdtNUCbICevb8eixN32x6P1211UudZm7+sqxWZpGvTWeSbAL+mZ+wP+rb+rHk9zZZLklA3BvsJiFQK0+vM/iN/k8Vwh9EjM5offUUCd14swf38t1F/kNm+govrtp8NbXZXoMVV2m212c+aIjPY9a3Rzw+1xYaQuBdDiKiu4OtQfflffVMq7HWL2b1Bg6Xmw4z6+H+5JpMB8adWZk/WLLQv6/x49tOkkvLZe7z1s6D7NvT2QXpviOW+m13mz/PlRTs/LlfzbDfCdr0mIet1v/6m2O/L86fVmt40DPiP/uH/P2DBl/PrBhEUfx4ZoZny3fH9/Z1Pb2LNrwHtq2UJ7IknJQRxf2NOqnIteut0e+c+s5D55DHFaMVivTja3h0/ePjg04f3du/tH3y6d2/3/oPTT+7tkCE1LUgPvuNfhltqg58NAfoaNPlhCNbezYK1t1mw9n4kWN+QYO3fe/hNSpYB9yPRihDlZ1u2KGmcXcTivH6bQemS738kXt+QeO0e7H+T4mXA/Ui8IkT5WRavJzkSchtkixsMCRa+/JFUfSNSde/h3t7eNydVDtyPpCpClJ9lqXqF5MRGsZIWQ3LF3/5sCdb/38XKZevG9z9IoHqAfn6LUo8c7yFEtxeiZ9V03XiLjxEp6jUJxaj79TclR5Ij/PKc1uo+3f//rzCFwwsz37eXpE1QhJCgzFmbLwix59VFMeXZefPV73/24iePn589/f1Pvn328vFd95WZuDf5u/bobHlJOWAi87xYOVoHs83tHv9e+TX3DVrY3ymd3EVhM07Pz14MovKcFgFS5rmhrnc/pOuXX27o+2VV0MLoxs73PqRzMxcvv3x941TYNejtdFFd5mlbpYt8Os+W4IqUVM7qdx3C8d5mHH/2Fd0mbv0gLSfrJ2fL8yq15IulZOXzzPvradGsyuz6s4+4SUqfhsviX/3+x89ffvs4/Lz7UoqeSu6Jx3IrdPYCdPSvDuS9AXTCz7svvTc6Jvb38Ak+63Rgv4vi9vsf/+Tnm9DTt98XSYmg5NOJ/d3Clq+7CD05fXMcxwXtb4dCuJYkn9FbWI/r4HBqPu2icfr89IvTF28GqLKkdc1U301dT7egifq/3rR5n3TIrt/Ep+zV8ZuzLzdNGr99O3r1PQv5/Dz6ue0n+KaL5bMvT37/L1/FEeT+0uD1u73l6Yf95enP8yUxIq0nhsvI9uP4WvKGJVRxVr/mCurR4+Evfb/tJ6uyjefpzDehl6afflPOWddZffuTA57Zd2ty2P+/5ZH1RmYM1D2xUC4MUcM0EJfEY5LdnUj0cW/nQwONe/ffxwDfNMT3NMLDLHtbdj5Z1zWrzB47m29CdtZPf7bYeXH8/1d2ppHZBM03wc73Y7H0zyk390f4Q+fml9VVXkd4WT4POZk/+9ni4+8OsPH/lzn4u52A4XZZop3xAAPH1fEHc/B7xUNddfwtj4cJl2+aie/e5IIcT9t1VgJnCQ6PTpfkjebENr1viGbtdE5Mkv+idVGz73qkv89Aw96Xj8+W1OlaOgXWQElmLvZNrPmbrL7I22dldnFEGZJnxTt0tbmdQTMVX/XLyU8T8s6v/yj4/GXWzj/76O7T/LKY5nc/r5ZFtciJAHdf1sUiq6/f1Nn07V28t6jWy/auD+GkzJpGAZxUixX5f9TiSxLiKbejcDsr8xlPqfpkg1ZYjdygXrtrfdSjx90YN77KtfMpv9iNQDevOPcCxM0raGGotnldoBPCDGU+/dDLfHey5q+6UUY8qXD3C0xUPgMgYu/LrCiR8MCfjYBnAQ0CAJnVmO8vU5hKg8/rar06m3FP3xQTDbHnrZlLmouwGkT2tvd2Pr138FAlBcL43thly7cm70QT+WBDEKS66WtGQazw3kMJySfUWbtujr58a5roByT8hASJybVB/mj3AZRT99PBLHkY+/fsevB1aN79r74pK/+6xez+/yglLgPiT63gqnxvSIFveOtnwWRv6O09TbPPZLdZ3TRJyx7b9ZoMrW/K198U+0XWfP+/z4K3X9W2VvT2qzO3gXY7N/b/r4udcZr8MARr72bB2tssWHs/EqxvSLCMx/kNSZYB9/NPtG5BlJ9t2TJrQ5uES9sMSpd8/yPx+obEy0Ro35B4GXA/Eq8IUX6WxUuWOTfIFjcYEix8+SOp+kakyuUyvhGpcuB+JFURovwsS5WujW8QK2kxJFf87c+WYP3/Xax6Wb+vK1A9QD+/RalHjp8VIermYSNS1GsSilH3629KjiRH+OX52bL9dP//v8IUDi9Mf99ekjZBEUKCMmdtviDEnlcXxZRn581Xv//Zi588fn729Pc/+fbZy8d33Vdm4t7k79qjs+Ul5YCJzPNi5WgdzDa3e/x75dfcN2hhf6d0cheFzTg9P3sxiMrzYpmnzHNDXe9+SNcvv9zQ98uqoGWdjZ3vfUjnZi5efvn6xqkwye90O11Ul3naVukin86zJbgiJZWz+l2HcLy3GceffUW3iVs/SMvJ+snZ8rxKLfliKVn5PPP+elo0qzK7/uwjbpLSp8HSEU3O8fOX3z4OP+++lKKnknvisdwKnb0AHf2rA3lvAJ3w8+5L742Oif09fILPOh3Y76K4/f7HP/n5JvTMouR7IikRlHw6sb9b2PJ1F6Enp2+O47jwWuetUAjXkuQzegvrcR0cTs2nXTROn59+cfrizQBVltUsT/Xd1PV0C5qo/+tNm/dJh+z6TXzKXh2/Ofty06TJcu+t6NX3LOTz8+jntp/gmy6Wz748+f2/fBVHkPtLg9fv8nrl2Yw+ebFeTPL66OHju51PHtvF+HAZ2X4cX0vesIQqzurXXEGllfHBL32/7Serso3n6cw3oZemn35TzlnXWX37kwOe2Xdrctj/v+WR9UZmDNQ9sVAuDFHDNBCXxGOS3Z1I9HFv50MDjXv338cA3zTE9zTCwyx7W3Y+Wdc1q8weO5tvQnbWT3+22Hlx/P9XdqaR2QTNN8HO92Ox9M8pN/dH+EPn5pfVVV5HeFk+DzmZP/vZ4uPvDrDx/5c5+LudgOF2WaKd8QADx9XxB3Pwe8VDXXX8LY+HCZdvmonv3uSCHE/bdVYCZwkOj06X5I3mxDa9b4hm7XROTJL/onVRs+96pL/PQMPel4/PltTpWjoF1kBJZi72Taz5m6y+yNtnZXZxRBmSZ8U7dLW5nUEzFV/1y8lPE/LOr/8o+Pxl1s4/++ju0/yymOZ3P6+WRbXIiQB3X9bFIquv39TZ9O1dvLeo1sv2rg/hpMyaRgGcVIsV+X/U4ksS4im3o3A7K/MZT6n6ZINWWI3coF67a33Uo8fdGDe+yrXzKb/YjUA3rzj3AsTNK2hhqLZ5XaATwgxlPv3Qy3x3suavulFGPKnApBdJvHt8mRUl0h34rIFAE1MXlEHRN8CL8tIXmN18ZqfRRDr96OMIsB7fHfy6/+LRmydf/P74/9PT1yevzKt+A33HC44YqSfZ8q3J/VAb76/U/4Po/BGCoYtimZWdLw4+MsCF3ylUadfN0ZdvDRrBx4/Nm/o3mQQSt86Hj7u08pTdl6uT6kn17svz11VZ5jWmwcZUIoLyBQtTPNryGqRb02yZTiua72KZUl+pfJmyjN35KP28rtarsxlP/ftLdYBKX1lEvt4k8ZHmokENMnvbezuf3jt4qOoLGvL9MOzOrE/Y03dtvpzlsw79iFMUoEsi7t7ZENCqnfmaES0br/cwKPKJx5PBB6TICQlSeddWCHZ5lab7aTfyh1PaDf3PmtfETEuaFWfM7SdwTkoZgyqVf+Rv6qqV99AQfZK/n754/eUXvz/+/7OmL/YG9cXDnyN9wZadBck4Nl29URbtJq1BX6dfCNP3lAa++4ZUhsMiojC6X25UF93GH64sPIjdSR1QFeaNQFHg0/8vq4iHt1IRu9+8ilA+5/n1eJxZG0SNWUOw5m76vcXi+/pjA3tvnVPicpITNmmxpGCN+qJfaDEoExbn/m/N4nhFpYQ4CX/9/rs7v//uEGMHX97E2O/N08PI9NXTD5EvzYrsN8KYO1G+9LAJFuu/W8yQcu/lFeTzMK/An/1s5RUWi///LcT3RmgDFgmabr8YfxOk22YsdgZSFtu74wcPH3z68N7uvf2DT/fu7d5/cPrJvZ2DSCZjuOXPVXajT473zGz4wjEsKt/OwSgRWdEvQmGRD38kLd+EtHxjwvIjWelR44NEpePafNp3dm52Z9iqDEqyiNEQ8iZaYpfg6wVPcALeM2x6/vvT/37WgqZ7Q0HT3k48aPpq+XZZXS1vFTmdLlbtdT90uplKHO2/H52+fPnm93/5+svnz0+/Pp2CP6Gbs1lBS/J9dtgXhniSZwv4gV+enze5YZseyx2/Kxpf6dpm/z9doesR4JYLdKQDd/buD2jBvfGD/Yd7BwcPHuxHNN+D++OHe/d39nd39nxt16H8LThPwhxyaFMkRFMXlaYcjr4fS7588+r3+v3pn+OT3+t9BNggE/Tof0/ZYHwl6jgIl2nGXucUcsy8D2zblMjmCT5JPlHK++D+LXMHYQ/R0CraIh5faZhv3njvIGsYMZcZN8sz5k/7xdmypWDKmb/gUxFvoxwscMyI93mgXJvwz46u3RnStTQXP+QEFVJSZTbN51U5y2MZ7efXy3f5dR4P3J//Pi9+79Pf5zRF6P50L305zxosF98uRB+csLu2zz5Hdb7aFKo/JdBTCkfvPqew++7L1+5vgnF6nd/9fVZNQZH0N8dpHuLdaY2nqH648f43mYe6d+9Weaj9981DvY8vZSbUZqLfTys//31+n98f/38Pjfx+LtXgutW9/Q93qX6yqDFD7+FUWV51mfv996MYXKvXp79X7K0PJtZg0p7M0Q9ZJ95ukY9B/Bws8nVUToBMxAL3v/4hLPNtxLE7u5sW+nTNg7glwr33/j+cx793/1b689776s+bA9/30bAxot9OZXyzi30/isd+ruOxoXDs/nj/4cH9Bw/u7z+MhGO793fHB/d3dg6+ZjTm+M/FY9bqf1hM9hox2ev3j8lC1XZzVNYLwxjtkxy6JAzE9h92AjF8cCuTINBi6j/8Jq75HaCw9ddR/Arhm4243lASsPjZCbj2seT2gZ7Ye3sYL+cFtbpwMZXM1auqZduUhl8GngW9iq/BUDPT7r09CJmku6a/19liVeYKrM9CG5pt9CRc87uEtRrievbh3DWAeHde//8WcbGCvdlj2Htfj4F+Z5TswoT3wePjts2mc0yHDhCGq6qLnP98Wa4vLvLZ0xqS2+YLSc1DvZ/NjmjSGRX9E99ww9erfFqcF1NemjKN+t+QRPWhv5fvwtzxNWNDjnSOv3j5/PR2ZuEDfJad9/BYBofg2UI1Ldsm6GhETzRsPOFXeJP4fkT5/MsXJ78///M+BlPwiRpKQUx/Qjh+pCR/pCR/pCQ/VElacTK/Nzdg8eaqejPP2+xmVIKWt8Rnc9e37Pd9OxWJEFkwf4mPa0SQCfT/AA+YGsOnjgAA

[PSD]
ActualTwoTheta=9999
FirstUsedChannel=0
FixedPSD=0
PSDOpening=4.9888
PSDType=5

[Drive]
DriveFlags=1
DriveName=2Theta
DriveNumber=2
DriveOffset=0
OffsetIndex=0
OscillationAmplitude=0
OscillationSpeed=0
StartPosition=5.00142

[Drive]
DriveFlags=1
DriveName=Theta
DriveNumber=1
DriveOffset=0
OffsetIndex=0
OscillationAmplitude=0
OscillationSpeed=0
StartPosition=2.50071

[Data]
     Angle,       PSD,
   5.00142,       613,
   5.06023,       653,
   5.11904,       601,
   5.17786,       546,
   5.23667,       557,
   5.29548,       542,
   5.35429,       598,
    5.4131,       527,
   5.47191,       525,
   5.53072,       510,
   5.58953,       511,
   5.64834,       502,
   5.70716,       518,
   5.76597,       460,
   5.82478,       496,
   5.88359,       468,
    5.9424,       490,
   6.00121,       431,
   6.06002,       415,
   6.11883,       409,
   6.17764,       433,
   6.23645,       400,
   6.29527,       445,
   6.35408,       403,
   6.41289,       407,
    6.4717,       427,
   6.53051,       368,
   6.58932,       391,
   6.64813,       343,
   6.70694,       382,
   6.76575,       367,
   6.82457,       338,
   6.88338,       337,
   6.94219,       323,
     7.001,       334,
   7.05981,       328,
   7.11862,       315,
   7.17743,       325,
   7.23624,       347,
   7.29505,       315,
   7.35387,       295,
   7.41268,       323,
   7.47149,       296,
    7.5303,       299,
   7.58911,       304,
   7.64792,       279,
   7.70673,       266,
   7.76554,       311,
   7.82435,       275,
   7.88316,       281,
   7.94198,       266,
   8.00079,       298,
    8.0596,       288,
   8.11841,       281,
   8.17722,       198,
   8.23603,       270,
   8.29484,       265,
   8.35365,       236,
   8.41246,       232,
   8.47128,       237,
   8.53009,       272,
    8.5889,       233,
   8.64771,       252,
   8.70652,       218,
   8.76533,       230,
   8.82414,       256,
   8.88295,       247,
   8.94176,       255,
   9.00057,       239,
   9.05939,       221,
    9.1182,       236,
   9.17701,       259,
   9.23582,       257,
   9.29463,       216,
   9.35344,       221,
   9.41225,       229,
   9.47106,       216,
   9.52987,       212,
   9.58869,       211,
    9.6475,       186,
   9.70631,       217,
   9.76512,       204,
   9.82393,       213,
   9.88274,       234,
   9.94155,       195,
   10.0004,       183,
   10.0592,       196,
    10.118,       183,
   10.1768,       199,
   10.2356,       208,
   10.2944,       211,
   10.3532,       230,
    10.412,       208,
   10.4709,       232,
   10.5297,       213,
   10.5885,       229,
   10.6473,       203,
   10.7061,       191,
   10.7649,       209,
   10.8237,       209,
   10.8825,       213,
   10.9413,       210,
   11.0002,       216,
    11.059,       231,
   11.1178,       256,
   11.1766,       257,
   11.2354,       214,
   11.2942,       224,
    11.353,       207,
   11.4118,       251,
   11.4706,       206,
   11.5295,       199,
   11.5883,       207,
   11.6471,       202,
   11.7059,       217,
   11.7647,       206,
   11.8235,       227,
   11.8823,       230,
   11.9411,       228,
   11.9999,       209,
   12.0588,       221,
   12.1176,       225,
   12.1764,       229,
   12.2352,       225,
    12.294,       243,
   12.3528,       215,
   12.4116,       194,
   12.4704,       207,
   12.5292,       215,
   12.5881,       216,
   12.6469,       218,
   12.7057,       237,
   12.7645,       221,
   12.8233,       223,
   12.8821,       259,
   12.9409,       181,
   12.9997,       194,
   13.0585,       199,
   13.1173,       229,
   13.1762,       207,
    13.235,       240,
   13.2938,       234,
   13.3526,       209,
   13.4114,       197,
   13.4702,       224,
    13.529,       233,
   13.5878,       233,
   13.6466,       201,
   13.7055,       189,
   13.7643,       208,
   13.8231,       201,
   13.8819,       251,
   13.9407,       213,
   13.9995,       223,
   14.0583,       195,
   14.1171,       225,
   14.1759,       235,
   14.2348,       221,
   14.2936,       255,
   14.3524,       214,
   14.4112,       233,
     14.47,       228,
   14.5288,       219,
   14.5876,       205,
   14.6464,       215,
   14.7052,       217,
   14.7641,       217,
   14.8229,       226,
   14.8817,       219,
   14.9405,       202,
   14.9993,       211,
   15.0581,       227,
   15.1169,       201,
   15.1757,       223,
   15.2345,       207,
   15.2934,       223,
   15.3522,       249,
    15.411,       226,
   15.4698,       214,
   15.5286,       221,
   15.5874,       213,
   15.6462,       249,
    15.705,       211,
   15.7638,       198,
   15.8227,       223,
   15.8815,       209,
   15.9403,       225,
   15.9991,       199,
   16.0579,       225,
   16.1167,       217,
   16.1755,       190,
   16.2343,       205,
   16.2931,       215,
    16.352,       173,
   16.4108,       192,
   16.4696,       188,
   16.5284,       207,
   16.5872,       214,
    16.646,       195,
   16.7048,       193,
   16.7636,       196,
   16.8224,       204,
   16.8813,       187,
   16.9401,       161,
   16.9989,       216,
   17.0577,       225,
   17.1165,       209,
   17.1753,       198,
   17.2341,       224,
   17.2929,       215,
   17.3517,       179,
   17.4106,       195,
   17.4694,       198,
   17.5282,       229,
    17.587,       209,
   17.6458,       198,
   17.7046,       192,
   17.7634,       192,
   17.8222,       189,
    17.881,       195,
   17.9399,       177,
   17.9987,       178,
   18.0575,       187,
   18.1163,       193,
   18.1751,       179,
   18.2339,       193,
   18.2927,       182,
   18.3515,       178,
   18.4103,       158,
   18.4692,       153,
    18.528,       196,
   18.5868,       141,
   18.6456,       165,
   18.7044,       173,
   18.7632,       207,
    18.822,       166,
   18.8808,       180,
   18.9396,       162,
   18.9985,       153,
   19.0573,       158,
   19.1161,       169,
   19.1749,       188,
   19.2337,       184,
   19.2925,       146,
   19.3513,       160,
   19.4101,       195,
   19.4689,       150,
   19.5278,       189,
   19.5866,       151,
   19.6454,       185,
   19.7042,       175,
    19.763,       169,
   19.8218,       175,
   19.8806,       151,
   19.9394,       177,
   19.9982,       170,
   20.0571,       174,
   20.1159,       151,
   20.1747,       179,
   20.2335,       172,
   20.2923,       150,
   20.3511,       173,
   20.4099,       170,
   20.4687,       189,
   20.5275,       157,
   20.5864,       161,
   20.6452,       148,
    20.704,       191,
   20.7628,       173,
   20.8216,       145,
   20.8804,       182,
   20.9392,       148,
    20.998,       170,
   21.0568,       139,
   21.1157,       176,
   21.1745,       143,
   21.2333,       134,
   21.2921,       150,
   21.3509,       174,
   21.4097,       189,
   21.4685,       170,
   21.5273,       174,
   21.5861,       131,
    21.645,       169,
   21.7038,       167,
   21.7626,       150,
   21.8214,       140,
   21.8802,       137,
    21.939,       129,
   21.9978,       154,
   22.0566,       175,
   22.1154,       182,
   22.1743,       186,
   22.2331,       140,
   22.2919,       146,
   22.3507,       174,
   22.4095,       145,
   22.4683,       132,
   22.5271,       120,
   22.5859,       135,
   22.6447,       128,
   22.7036,       152,
   22.7624,       134,
   22.8212,       159,
     22.88,       155,
   22.9388,       169,
   22.9976,       199,
   23.0564,       177,
   23.1152,       175,
    23.174,       139,
   23.2329,       159,
   23.2917,       123,
   23.3505,       120,
   23.4093,       160,
   23.4681,       132,
   23.5269,       158,
   23.5857,       122,
   23.6445,       130,
   23.7033,       134,
   23.7622,       125,
    23.821,       139,
   23.8798,       162,
   23.9386,       152,
   23.9974,       122,
   24.0562,       114,
    24.115,       114,
   24.1738,       129,
   24.2326,       156,
   24.2915,       141,
   24.3503,       135,
   24.4091,       124,
   24.4679,       166,
   24.5267,       150,
   24.5855,       150,
   24.6443,       167,
   24.7031,       158,
   24.7619,       166,
   24.8208,       184,
   24.8796,       176,
   24.9384,       166,
   24.9972,       163,
    25.056,       204,
   25.1148,       177,
   25.1736,       225,
   25.2324,       249,
   25.2912,       268,
   25.3501,       385,
   25.4089,       629,
   25.4677,      1230,
   25.5265,      2337,
   25.5853,      3057,
   25.6441,      2333,
   25.7029,      1076,
   25.7617,       488,
   25.8205,       352,
   25.8794,       286,
   25.9382,       237,
    25.997,       211,
   26.0558,       177,
   26.1146,       172,
   26.1734,       176,
   26.2322,       192,
    26.291,       170,
   26.3498,       152,
   26.4087,       172,
   26.4675,       136,
   26.5263,       161,
   26.5851,       148,
   26.6439,       167,
   26.7027,       151,
   26.7615,       144,
   26.8203,       151,
   26.8791,       165,
    26.938,       185,
   26.9968,       161,
   27.0556,       144,
   27.1144,       148,
   27.1732,       171,
    27.232,       154,
   27.2908,       168,
   27.3496,       154,
   27.4084,       172,
   27.4672,       157,
   27.5261,       171,
   27.5849,       139,
   27.6437,       165,
   27.7025,       140,
   27.7613,       168,
   27.8201,       150,
   27.8789,       142,
   27.9377,       155,
   27.9965,       163,
   28.0554,       156,
   28.1142,       152,
    28.173,       131,
   28.2318,       162,
   28.2906,       167,
   28.3494,       170,
   28.4082,       165,
    28.467,       160,
   28.5258,       166,
   28.5847,       151,
   28.6435,       152,
   28.7023,       173,
   28.7611,       157,
   28.8199,       160,
   28.8787,       200,
   28.9375,       165,
   28.9963,       155,
   29.0551,       162,
    29.114,       162,
   29.1728,       177,
   29.2316,       158,
   29.2904,       171,
   29.3492,       150,
    29.408,       178,
   29.4668,       172,
   29.5256,       164,
   29.5844,       161,
   29.6433,       150,
   29.7021,       177,
   29.7609,       177,
   29.8197,       161,
   29.8785,       168,
   29.9373,       169,
   29.9961,       189,
   30.0549,       184,
   30.1137,       160,
   30.1726,       169,
   30.2314,       163,
   30.2902,       148,
    30.349,       161,
   30.4078,       167,
   30.4666,       157,
   30.5254,       198,
   30.5842,       143,
    30.643,       167,
   30.7019,       153,
   30.7607,       178,
   30.8195,       198,
   30.8783,       160,
   30.9371,       169,
   30.9959,       177,
   31.0547,       142,
   31.1135,       173,
   31.1723,       166,
   31.2312,       180,
     31.29,       169,
   31.3488,       172,
   31.4076,       173,
   31.4664,       171,
   31.5252,       189,
    31.584,       204,
   31.6428,       208,
   31.7016,       194,
   31.7605,       219,
   31.8193,       191,
   31.8781,       166,
   31.9369,       179,
   31.9957,       150,
   32.0545,       172,
   32.1133,       162,
   32.1721,       146,
   32.2309,       152,
   32.2898,       190,
   32.3486,       170,
   32.4074,       152,
   32.4662,       178,
    32.525,       153,
   32.5838,       150,
   32.6426,       185,
   32.7014,       158,
   32.7602,       164,
   32.8191,       161,
   32.8779,       165,
   32.9367,       130,
   32.9955,       151,
   33.0543,       179,
   33.1131,       155,
   33.1719,       169,
   33.2307,       149,
   33.2895,       173,
   33.3484,       179,
   33.4072,       162,
    33.466,       161,
   33.5248,       163,
   33.5836,       162,
   33.6424,       155,
   33.7012,       150,
     33.76,       156,
   33.8188,       158,
   33.8777,       178,
   33.9365,       187,
   33.9953,       203,
   34.0541,       163,
   34.1129,       209,
   34.1717,       157,
   34.2305,       187,
   34.2893,       193,
   34.3481,       173,
    34.407,       192,
   34.4658,       206,
   34.5246,       186,
   34.5834,       215,
   34.6422,       219,
    34.701,       255,
   34.7598,       282,
   34.8186,       320,
   34.8774,       413,
   34.9363,       604,
   34.9951,      1132,
   35.0539,      2169,
   35.1127,      3443,
   35.1715,      3714,
   35.2303,      2759,
   35.2891,      1558,
   35.3479,       752,
   35.4067,       445,
   35.4656,       313,
   35.5244,       262,
   35.5832,       247,
    35.642,       218,
   35.7008,       199,
   35.7596,       189,
   35.8184,       180,
   35.8772,       197,
    35.936,       180,
   35.9949,       178,
   36.0537,       184,
   36.1125,       166,
   36.1713,       166,
   36.2301,       149,
   36.2889,       184,
   36.3477,       163,
   36.4065,       188,
   36.4653,       176,
   36.5242,       171,
    36.583,       166,
   36.6418,       165,
   36.7006,       164,
   36.7594,       150,
   36.8182,       150,
    36.877,       175,
   36.9358,       161,
   36.9946,       139,
   37.0535,       176,
   37.1123,       168,
   37.1711,       167,
   37.2299,       166,
   37.2887,       201,
   37.3475,       194,
   37.4063,       218,
   37.4651,       253,
   37.5239,       302,
   37.5828,       368,
   37.6416,       680,
   37.7004,      1193,
   37.7592,      1659,
    37.818,      1520,
   37.8768,      1085,
   37.9356,       620,
   37.9944,       351,
   38.0532,       244,
   38.1121,       228,
   38.1709,       196,
   38.2297,       193,
   38.2885,       185,
   38.3473,       173,
   38.4061,       174,
   38.4649,       164,
   38.5237,       142,
   38.5825,       167,
   38.6414,       174,
   38.7002,       164,
    38.759,       175,
   38.8178,       164,
   38.8766,       197,
   38.9354,       192,
   38.9942,       194,
    39.053,       182,
   39.1118,       204,
   39.1707,       172,
   39.2295,       153,
   39.2883,       148,
   39.3471,       164,
   39.4059,       143,
   39.4647,       158,
   39.5235,       188,
   39.5823,       154,
   39.6411,       152,
      39.7,       163,
   39.7588,       164,
   39.8176,       145,
   39.8764,       191,
   39.9352,       177,
    39.994,       162,
   40.0528,       189,
   40.1116,       176,
   40.1704,       166,
   40.2293,       174,
   40.2881,       167,
   40.3469,       196,
   40.4057,       127,
   40.4645,       160,
   40.5233,       180,
   40.5821,       167,
   40.6409,       172,
   40.6997,       160,
   40.7586,       183,
   40.8174,       170,
   40.8762,       155,
    40.935,       186,
   40.9938,       169,
   41.0526,       174,
   41.1114,       179,
   41.1702,       196,
    41.229,       198,
   41.2879,       158,
   41.3467,       184,
   41.4055,       175,
   41.4643,       174,
   41.5231,       184,
   41.5819,       203,
   41.6407,       203,
   41.6995,       200,
   41.7583,       201,
   41.8171,       186,
    41.876,       221,
   41.9348,       170,
   41.9936,       173,
   42.0524,       196,
   42.1112,       189,
     42.17,       195,
   42.2288,       183,
   42.2876,       175,
   42.3464,       189,
   42.4053,       189,
   42.4641,       183,
   42.5229,       170,
   42.5817,       190,
   42.6405,       208,
   42.6993,       205,
   42.7581,       205,
   42.8169,       223,
   42.8757,       234,
   42.9346,       295,
   42.9934,       352,
   43.0522,       415,
    43.111,       584,
   43.1698,       981,
   43.2286,      1773,
   43.2874,      3048,
   43.3462,      3744,
    43.405,      3261,
   43.4639,      2445,
   43.5227,      1391,
   43.5815,       734,
   43.6403,       481,
   43.6991,       362,
   43.7579,       290,
   43.8167,       241,
   43.8755,       218,
   43.9343,       200,
   43.9932,       195,
    44.052,       196,
   44.1108,       186,
   44.1696,       166,
   44.2284,       181,
   44.2872,       174,
    44.346,       179,
   44.4048,       193,
   44.4636,       188,
   44.5225,       164,
   44.5813,       177,
   44.6401,       191,
   44.6989,       163,
   44.7577,       180,
   44.8165,       172,
   44.8753,       163,
   44.9341,       164,
   44.9929,       166,
   45.0518,       147,
   45.1106,       166,
   45.1694,       181,
   45.2282,       170,
    45.287,       184,
   45.3458,       182,
   45.4046,       160,
   45.4634,       174,
   45.5222,       157,
   45.5811,       170,
   45.6399,       155,
   45.6987,       144,
   45.7575,       157,
   45.8163,       144,
   45.8751,       166,
   45.9339,       165,
   45.9927,       184,
   46.0515,       194,
   46.1104,       190,
   46.1692,       214,
    46.228,       185,
   46.2868,       184,
   46.3456,       171,
   46.4044,       171,
   46.4632,       152,
    46.522,       147,
   46.5808,       171,
   46.6397,       166,
   46.6985,       148,
   46.7573,       135,
   46.8161,       191,
   46.8749,       151,
   46.9337,       176,
   46.9925,       176,
   47.0513,       177,
   47.1101,       171,
    47.169,       181,
   47.2278,       142,
   47.2866,       149,
   47.3454,       136,
   47.4042,       153,
    47.463,       130,
   47.5218,       116,
   47.5806,       120,
   47.6394,       163,
   47.6983,       151,
   47.7571,       137,
   47.8159,       178,
   47.8747,       154,
   47.9335,       136,
   47.9923,       142,
   48.0511,       150,
   48.1099,       139,
   48.1687,       143,
   48.2276,       141,
   48.2864,       128,
   48.3452,       162,
    48.404,       166,
   48.4628,       134,
   48.5216,       155,
   48.5804,       126,
   48.6392,       145,
    48.698,       136,
   48.7569,       149,
   48.8157,       149,
   48.8745,       145,
   48.9333,       142,
   48.9921,       136,
   49.0509,       132,
   49.1097,       141,
   49.1685,       142,
   49.2273,       151,
   49.2862,       154,
    49.345,       146,
   49.4038,       137,
   49.4626,       162,
   49.5214,       123,
   49.5802,       142,
    49.639,       144,
   49.6978,       149,
   49.7566,       167,
   49.8155,       127,
   49.8743,       135,
   49.9331,       131,
   49.9919,       156,
   50.0507,       139,
   50.1095,       130,
   50.1683,       138,
   50.2271,       174,
   50.2859,       149,
   50.3448,       133,
   50.4036,       126,
   50.4624,       136,
   50.5212,       146,
     50.58,       160,
   50.6388,       148,
   50.6976,       146,
   50.7564,       150,
   50.8152,       153,
   50.8741,       142,
   50.9329,       142,
   50.9917,       154,
   51.0505,       172,
   51.1093,       158,
   51.1681,       134,
   51.2269,       146,
   51.2857,       147,
   51.3445,       165,
   51.4034,       171,
   51.4622,       193,
    51.521,       169,
   51.5798,       216,
   51.6386,       182,
   51.6974,       173,
   51.7562,       144,
    51.815,       165,
   51.8738,       154,
   51.9327,       175,
   51.9915,       170,
   52.0503,       181,
   52.1091,       192,
   52.1679,       227,
   52.2267,       260,
   52.2855,       342,
   52.3443,       386,
   52.4031,       720,
    52.462,      1102,
   52.5208,      1436,
   52.5796,      1432,
   52.6384,      1172,
   52.6972,       934,
    52.756,       592,
   52.8148,       364,
   52.8736,       268,
   52.9324,       212,
   52.9913,       194,
   53.0501,       183,
   53.1089,       142,
   53.1677,       182,
   53.2265,       142,
   53.2853,       153,
   53.3441,       142,
   53.4029,       161,
   53.4617,       141,
   53.5206,       120,
   53.5794,       154,
   53.6382,       126,
    53.697,       147,
   53.7558,       158,
   53.8146,       135,
   53.8734,       151,
   53.9322,       152,
    53.991,       160,
   54.0499,       161,
   54.1087,       147,
   54.1675,       136,
   54.2263,       158,
   54.2851,       137,
   54.3439,       142,
   54.4027,       125,
   54.4615,       123,
   54.5203,       141,
   54.5792,       139,
    54.638,       143,
   54.6968,       129,
   54.7556,       110,
   54.8144,       150,
   54.8732,       146,
    54.932,       157,
   54.9908,       131,
   55.0496,       145,
   55.1085,       144,
   55.1673,       164,
   55.2261,       151,
   55.2849,       140,
   55.3437,       159,
   55.4025,       144,
   55.4613,       133,
   55.5201,       164,
   55.5789,       152,
   55.6378,       164,
   55.6966,       160,
   55.7554,       159,
   55.8142,       156,
    55.873,       142,
   55.9318,       155,
   55.9906,       154,
   56.0494,       142,
   56.1082,       146,
   56.1671,       148,
   56.2259,       158,
   56.2847,       159,
   56.3435,       171,
   56.4023,       150,
   56.4611,       131,
   56.5199,       155,
   56.5787,       180,
   56.6375,       152,
   56.6963,       173,
   56.7552,       158,
    56.814,       171,
   56.8728,       174,
   56.9316,       174,
   56.9904,       206,
   57.0492,       227,
    57.108,       274,
   57.1668,       319,
   57.2256,       454,
   57.2845,       726,
   57.3433,      1089,
   57.4021,      1901,
   57.4609,      2651,
   57.5197,      2483,
   57.5785,      2095,
   57.6373,      1728,
   57.6961,      1225,
   57.7549,       777,
   57.8138,       433,
   57.8726,       316,
   57.9314,       245,
   57.9902,       219,
    58.049,       207,
   58.1078,       161,
   58.1666,       174,
   58.2254,       158,
   58.2842,       157,
   58.3431,       151,
   58.4019,       162,
   58.4607,       145,
   58.5195,       154,
   58.5783,       156,
   58.6371,       162,
   58.6959,       146,
   58.7547,       158,
   58.8135,       137,
   58.8724,       133,
   58.9312,       150,
     58.99,       132,
   59.0488,       135,
   59.1076,       134,
   59.1664,       131,
   59.2252,       149,
    59.284,       170,
   59.3428,       164,
   59.4017,       165,
   59.4605,       170,
   59.5193,       155,
   59.5781,       164,
   59.6369,       191,
   59.6957,       207,
   59.7545,       209,
   59.8133,       190,
   59.8721,       176,
    59.931,       185,
   59.9898,       143,
   60.0486,       169,
   60.1074,       152,
   60.1662,       167,
    60.225,       149,
   60.2838,       144,
   60.3426,       127,
   60.4014,       142,
   60.4603,       126,
   60.5191,       133,
   60.5779,       152,
   60.6367,       132,
   60.6955,       156,
   60.7543,       138,
   60.8131,       166,
   60.8719,       176,
   60.9307,       184,
   60.9896,       211,
   61.0484,       233,
   61.1072,       239,
    61.166,       286,
   61.2248,       344,
   61.2836,       350,
   61.3424,       294,
   61.4012,       246,
     61.46,       214,
   61.5189,       201,
   61.5777,       173,
   61.6365,       153,
   61.6953,       154,
   61.7541,       128,
   61.8129,       148,
   61.8717,       138,
   61.9305,       120,
   61.9893,       127,
   62.0482,       139,
    62.107,       125,
   62.1658,       120,
   62.2246,       133,
   62.2834,       144,
   62.3422,       126,
    62.401,       141,
   62.4598,       123,
   62.5186,       146,
   62.5775,       127,
   62.6363,       117,
   62.6951,       146,
   62.7539,       134,
   62.8127,       121,
   62.8715,       126,
   62.9303,       135,
   62.9891,       128,
   63.0479,       116,
   63.1068,       129,
   63.1656,       123,
   63.2244,       121,
   63.2832,       135,
    63.342,       131,
   63.4008,       122,
   63.4596,       122,
   63.5184,       144,
   63.5772,       133,
   63.6361,       107,
   63.6949,       139,
   63.7537,       113,
   63.8125,       137,
   63.8713,       134,
   63.9301,       128,
   63.9889,       118,
   64.0477,       136,
   64.1065,       130,
   64.1654,       141,
   64.2242,       143,
    64.283,       127,
   64.3418,       124,
   64.4006,       110,
   64.4594,       134,
   64.5182,       125,
    64.577,       125,
   64.6358,       119,
   64.6947,       131,
   64.7535,       134,
   64.8123,       121,
   64.8711,       126,
   64.9299,       117,
   64.9887,       144,
   65.0475,       137,
   65.1063,       123,
   65.1651,       128,
    65.224,       136,
   65.2828,       145,
   65.3416,       113,
   65.4004,       131,
   65.4592,       134,
    65.518,       128,
   65.5768,       134,
   65.6356,       135,
   65.6944,       150,
   65.7533,       147,
   65.8121,       124,
   65.8709,       133,
   65.9297,       137,
   65.9885,       148,
   66.0473,       178,
   66.1061,       169,
   66.1649,       184,
   66.2237,       223,
   66.2826,       303,
   66.3414,       444,
   66.4002,       686,
    66.459,       937,
   66.5178,       967,
   66.5766,       846,
   66.6354,       742,
   66.6942,       644,
    66.753,       488,
   66.8119,       340,
   66.8707,       221,
   66.9295,       199,
   66.9883,       188,
   67.0471,       174,
   67.1059,       162,
   67.1647,       144,
   67.2235,       152,
   67.2823,       138,
   67.3412,       126,
      67.4,       140,
   67.4588,       163,
   67.5176,       161,
   67.5764,       159,
   67.6352,       168,
    67.694,       161,
   67.7528,       180,
   67.8116,       199,
   67.8705,       255,
   67.9293,       294,
   67.9881,       433,
   68.0469,       697,
   68.1057,      1043,
   68.1645,      1395,
   68.2233,      1401,
   68.2821,      1161,
   68.3409,      1051,
   68.3998,       886,
   68.4586,       652,
   68.5174,       397,
   68.5762,       297,
    68.635,       233,
   68.6938,       175,
   68.7526,       173,
   68.8114,       145,
   68.8702,       129,
   68.9291,       149,
   68.9879,       125,
   69.0467,       132,
   69.1055,       143,
   69.1643,       124,
   69.2231,       142,
   69.2819,       117,
   69.3407,       129,
   69.3995,       129,
   69.4584,       118,
   69.5172,       117,
    69.576,       130,
   69.6348,       103,
   69.6936,       115,
   69.7524,       119,
   69.8112,       124,
     69.87,       112,
   69.9288,       124,
   69.9877,       130,
   70.0465,       142,
   70.1053,       147,
   70.1641,       139,
   70.2229,       125,
   70.2817,       150,
   70.3405,       156,
   70.3993,       139,
   70.4581,       140,
    70.517,       133,
   70.5758,       151,
   70.6346,       119,
   70.6934,       133,
   70.7522,       133,
    70.811,       124,
   70.8698,       120,
   70.9286,       113,
   70.9874,       128,
   71.0462,       128,
   71.1051,       128,
   71.1639,       116,
   71.2227,       113,
   71.2815,       125,
   71.3403,       102,
   71.3991,       123,
   71.4579,       126,
   71.5167,       115,
   71.5755,       127,
   71.6344,       131,
   71.6932,       140,
    71.752,       128,
   71.8108,       104,
   71.8696,       134,
   71.9284,       114,
   71.9872,       126,
    72.046,       130,
   72.1048,       145,
   72.1637,       120,
   72.2225,       126,
   72.2813,       114,
   72.3401,       121,
   72.3989,       113,
   72.4577,       110,
   72.5165,       110,
   72.5753,       119,
   72.6341,       120,
    72.693,       121,
   72.7518,       140,
   72.8106,       130,
   72.8694,       119,
   72.9282,       109,
    72.987,       132,
   73.0458,       109,
   73.1046,       131,
   73.1634,       125,
   73.2223,       134,
   73.2811,       122,
   73.3399,       115,
   73.3987,       129,
   73.4575,       118,
   73.5163,       105,
   73.5751,       119,
   73.6339,       124,
   73.6927,       113,
   73.7516,       127,
   73.8104,       118,
   73.8692,       122,
    73.928,       131,
   73.9868,       141,
   74.0456,       144,
   74.1044,       152,
   74.1632,       142,
    74.222,       128,
   74.2809,       171,
   74.3397,       134,
   74.3985,       127,
   74.4573,       146,
   74.5161,       138,
   74.5749,       144,
   74.6337,       130,
   74.6925,       118,
   74.7513,       138,
   74.8102,       127,
    74.869,       151,
   74.9278,        94,
   74.9866,       118,
   75.0454,       147,
   75.1042,       129,
    75.163,       132,
   75.2218,       123,
   75.2806,       112,
   75.3395,       122,
   75.3983,       125,
   75.4571,       125,
   75.5159,       115,
   75.5747,       113,
   75.6335,       134,
   75.6923,       130,
   75.7511,       133,
   75.8099,       117,
   75.8688,       125,
   75.9276,       116,
   75.9864,       106,
   76.0452,       116,
    76.104,       131,
   76.1628,       132,
   76.2216,       144,
   76.2804,       142,
   76.3392,       147,
   76.3981,       146,
   76.4569,       147,
   76.5157,       146,
   76.5745,       177,
   76.6333,       204,
   76.6921,       271,
   76.7509,       334,
   76.8097,       413,
   76.8685,       436,
   76.9274,       427,
   76.9862,       427,
    77.045,       405,
   77.1038,       384,
   77.1626,       386,
   77.2214,       382,
   77.2802,       329,
    77.339,       264,
   77.3978,       255,
   77.4567,       217,
   77.5155,       181,
   77.5743,       170,
   77.6331,       153,
   77.6919,       123,
   77.7507,       136,
   77.8095,       131,
   77.8683,       143,
   77.9271,       147,
    77.986,       122,
   78.0448,       114,
   78.1036,       138,
   78.1624,       127,
   78.2212,       136,
     78.28,       118,
   78.3388,       128,
   78.3976,       118,
   78.4564,       120,
   78.5153,       134,
   78.5741,       125,
   78.6329,       123,
   78.6917,       126,
   78.7505,       122,
   78.8093,       112,
   78.8681,       125,
   78.9269,       113,
   78.9857,       119,
   79.0446,       129,
   79.1034,       110,
   79.1622,       111,
    79.221,       126,
   79.2798,       108,
   79.3386,        92,
   79.3974,       114,
   79.4562,       123,
    79.515,       127,
   79.5739,       104,
   79.6327,       144,
   79.6915,       121,
   79.7503,       115,
   79.8091,       122,
   79.8679,       135,
   79.9267,       117,
   79.9855,       109,
   80.0443,       133,
